# === DATA DESCRIPTION FILE ======================================================
#
# CAUTION - Investigational device.
# Limited by Federal Law to investigational use.
#
# Dataset name: Phantom_B0shimarray_05_01_09.40.28_(WIP_B0map) (convert_dicom_to_xmlrec.pl v0.4)
#
# CLINICAL TRYOUT             Research image export tool     V4.2
#
# === GENERAL INFORMATION ========================================================
#
.    Patient name                       :   Phantom_B0shimarray
.    Examination name                   :   
.    Protocol name                      :   WIP B0map
.    Examination date/time              :   2022.07.18 / 08:24:10
.    Series Type                        :   Image   MRSERIES
.    Acquisition nr                     :   5
.    Reconstruction nr                  :   1
.    Scan Duration [sec]                :   127.0
.    Max. number of cardiac phases      :   1
.    Max. number of echoes              :   1
.    Max. number of slices/locations    :   43
.    Max. number of dynamics            :   5
.    Max. number of mixes               :   1
.    Patient position                   :   HeadFirstSupine
.    Preparation direction              :   Anterior-Posterior
.    Technique                          :   T1FFE
.    Scan resolution  (x, y)            :   72  72
.    Scan mode                          :   MS
.    Repetition time [ms]               :   175.001  
.    FOV (ap,fh,rl) [mm]                :   220.000  172.000  220.000
.    Water Fat shift [pixels]           :   0.160
.    Angulation midslice(ap,fh,rl)[degr]:   0.000  0.000  0.000
.    Off Centre midslice(ap,fh,rl) [mm] :   -78.156  12.625  0.000
.    Flow compensation <0=no 1=yes> ?   :   0
.    Presaturation     <0=no 1=yes> ?   :   0
.    Phase encoding velocity [cm/sec]   :   0.000000  0.000000  0.000000
.    MTC               <0=no 1=yes> ?   :   0
.    SPIR              <0=no 1=yes> ?   :   0
.    EPI factor        <0,1=no EPI>     :   1
.    Dynamic scan      <0=no 1=yes> ?   :   1
.    Diffusion         <0=no 1=yes> ?   :   0
.    Diffusion echo time [ms]           :   0.0000
.    Max. number of diffusion values    :   1
.    Max. number of gradient orients    :   1
.    Number of label types   <0=no ASL> :   0
#
# === PIXEL VALUES =============================================================
#  PV = pixel value in REC file, FP = floating point value, DV = displayed value on console
#  RS = rescale slope,           RI = rescale intercept,    SS = scale slope
#  DV = PV * RS + RI             FP = DV / (RS * SS)
#
# === IMAGE INFORMATION DEFINITION =============================================
#  The rest of this file contains ONE line per image, this line contains the following information:
#
#  slice number                             (integer)
#  echo number                              (integer)
#  dynamic scan number                      (integer)
#  cardiac phase number                     (integer)
#  image_type_mr                            (integer)
#  scanning sequence                        (integer)
#  index in REC file (in images)            (integer)
#  image pixel size (in bits)               (integer)
#  scan percentage                          (integer)
#  recon resolution (x y)                   (2*integer)
#  rescale intercept                        (float)
#  rescale slope                            (float)
#  scale slope                              (float)
#  window center                            (integer)
#  window width                             (integer)
#  image angulation (ap,fh,rl in degrees )  (3*float)
#  image offcentre (ap,fh,rl in mm )        (3*float)
#  slice thickness (in mm )                 (float)
#  slice gap (in mm )                       (float)
#  image_display_orientation                (integer)
#  slice orientation ( TRA/SAG/COR )        (integer)
#  fmri_status_indication                   (integer)
#  image_type_ed_es  (end diast/end syst)   (integer)
#  pixel spacing (x,y) (in mm)              (2*float)
#  echo_time                                (float)
#  dyn_scan_begin_time                      (float)
#  trigger_time                             (float)
#  diffusion_b_factor                       (float)
#  number of averages                       (integer)
#  image_flip_angle (in degrees)            (float)
#  cardiac frequency   (bpm)                (integer)
#  minimum RR-interval (in ms)              (integer)
#  maximum RR-interval (in ms)              (integer)
#  TURBO factor  <0=no turbo>               (integer)
#  Inversion delay (in ms)                  (float)
#  diffusion b value number    (imagekey!)  (integer)
#  gradient orientation number (imagekey!)  (integer)
#  contrast type                            (string)
#  diffusion anisotropy type                (string)
#  diffusion (ap, fh, rl)                   (3*float)
#  label type (ASL)            (imagekey!)  (integer)
#
# === IMAGE INFORMATION ==========================================================
#  sl ec  dyn ph ty    idx pix scan% rec size                (re)scale              window        angulation              offcentre        thick   gap   info      spacing     echo     dtime   ttime    diff  avg  flip    freq   RR-int  turbo delay b grad cont anis         diffusion       L.ty

  1   1    1  1 0 2     0  16   100  112  112     0.00000   8.42027 7.32390e-02  1070  1860   0.00   0.00   0.00  -78.16  -71.37    0.00 4.000 0.000 0 1 1 2  1.964  1.964   1.98    0.00     0.00    0.00   1   25.00     0    0    0     1   0.0  1   1    7    0   0.000    0.000    0.000  1
  2   1    1  1 0 2     1  16   100  112  112     0.00000   8.42027 7.32390e-02  2110  3667   0.00   0.00   0.00  -78.16  -67.37    0.00 4.000 0.000 0 1 1 2  1.964  1.964   1.98    0.00     0.00    0.00   1   25.00     0    0    0     1   0.0  1   1    7    0   0.000    0.000    0.000  1
  3   1    1  1 0 2     2  16   100  112  112     0.00000   8.42027 7.32390e-02  2120  3685   0.00   0.00   0.00  -78.16  -63.37    0.00 4.000 0.000 0 1 1 2  1.964  1.964   1.98    0.00     0.00    0.00   1   25.00     0    0    0     1   0.0  1   1    7    0   0.000    0.000    0.000  1
  4   1    1  1 0 2     3  16   100  112  112     0.00000   8.42027 7.32390e-02  2167  3767   0.00   0.00   0.00  -78.16  -59.37    0.00 4.000 0.000 0 1 1 2  1.964  1.964   1.98    0.00     0.00    0.00   1   25.00     0    0    0     1   0.0  1   1    7    0   0.000    0.000    0.000  1
  5   1    1  1 0 2     4  16   100  112  112     0.00000   8.42027 7.32390e-02  2223  3863   0.00   0.00   0.00  -78.16  -55.37    0.00 4.000 0.000 0 1 1 2  1.964  1.964   1.98    0.00     0.00    0.00   1   25.00     0    0    0     1   0.0  1   1    7    0   0.000    0.000    0.000  1
  6   1    1  1 0 2     5  16   100  112  112     0.00000   8.42027 7.32390e-02  2315  4024   0.00   0.00   0.00  -78.16  -51.37    0.00 4.000 0.000 0 1 1 2  1.964  1.964   1.98    0.00     0.00    0.00   1   25.00     0    0    0     1   0.0  1   1    7    0   0.000    0.000    0.000  1
  7   1    1  1 0 2     6  16   100  112  112     0.00000   8.42027 7.32390e-02  2476  4305   0.00   0.00   0.00  -78.16  -47.37    0.00 4.000 0.000 0 1 1 2  1.964  1.964   1.98    0.00     0.00    0.00   1   25.00     0    0    0     1   0.0  1   1    7    0   0.000    0.000    0.000  1
  8   1    1  1 0 2     7  16   100  112  112     0.00000   8.42027 7.32390e-02  2575  4476   0.00   0.00   0.00  -78.16  -43.37    0.00 4.000 0.000 0 1 1 2  1.964  1.964   1.98    0.00     0.00    0.00   1   25.00     0    0    0     1   0.0  1   1    7    0   0.000    0.000    0.000  1
  9   1    1  1 0 2     8  16   100  112  112     0.00000   8.42027 7.32390e-02  2676  4651   0.00   0.00   0.00  -78.16  -39.37    0.00 4.000 0.000 0 1 1 2  1.964  1.964   1.98    0.00     0.00    0.00   1   25.00     0    0    0     1   0.0  1   1    7    0   0.000    0.000    0.000  1
 10   1    1  1 0 2     9  16   100  112  112     0.00000   8.42027 7.32390e-02  2823  4907   0.00   0.00   0.00  -78.16  -35.37    0.00 4.000 0.000 0 1 1 2  1.964  1.964   1.98    0.00     0.00    0.00   1   25.00     0    0    0     1   0.0  1   1    7    0   0.000    0.000    0.000  1
 11   1    1  1 0 2    10  16   100  112  112     0.00000   8.42027 7.32390e-02  2991  5199   0.00   0.00   0.00  -78.16  -31.37    0.00 4.000 0.000 0 1 1 2  1.964  1.964   1.98    0.00     0.00    0.00   1   25.00     0    0    0     1   0.0  1   1    7    0   0.000    0.000    0.000  1
 12   1    1  1 0 2    11  16   100  112  112     0.00000   8.42027 7.32390e-02  3115  5415   0.00   0.00   0.00  -78.16  -27.37    0.00 4.000 0.000 0 1 1 2  1.964  1.964   1.98    0.00     0.00    0.00   1   25.00     0    0    0     1   0.0  1   1    7    0   0.000    0.000    0.000  1
 13   1    1  1 0 2    12  16   100  112  112     0.00000   8.42027 7.32390e-02  3237  5626   0.00   0.00   0.00  -78.16  -23.37    0.00 4.000 0.000 0 1 1 2  1.964  1.964   1.98    0.00     0.00    0.00   1   25.00     0    0    0     1   0.0  1   1    7    0   0.000    0.000    0.000  1
 14   1    1  1 0 2    13  16   100  112  112     0.00000   8.42027 7.32390e-02  3488  6063   0.00   0.00   0.00  -78.16  -19.37    0.00 4.000 0.000 0 1 1 2  1.964  1.964   1.98    0.00     0.00    0.00   1   25.00     0    0    0     1   0.0  1   1    7    0   0.000    0.000    0.000  1
 15   1    1  1 0 2    14  16   100  112  112     0.00000   8.42027 7.32390e-02  3731  6486   0.00   0.00   0.00  -78.16  -15.37    0.00 4.000 0.000 0 1 1 2  1.964  1.964   1.98    0.00     0.00    0.00   1   25.00     0    0    0     1   0.0  1   1    7    0   0.000    0.000    0.000  1
 16   1    1  1 0 2    15  16   100  112  112     0.00000   8.42027 7.32390e-02  3986  6929   0.00   0.00   0.00  -78.16  -11.37    0.00 4.000 0.000 0 1 1 2  1.964  1.964   1.98    0.00     0.00    0.00   1   25.00     0    0    0     1   0.0  1   1    7    0   0.000    0.000    0.000  1
 17   1    1  1 0 2    16  16   100  112  112     0.00000   8.42027 7.32390e-02  4200  7301   0.00   0.00   0.00  -78.16   -7.37    0.00 4.000 0.000 0 1 1 2  1.964  1.964   1.98    0.00     0.00    0.00   1   25.00     0    0    0     1   0.0  1   1    7    0   0.000    0.000    0.000  1
 18   1    1  1 0 2    17  16   100  112  112     0.00000   8.42027 7.32390e-02  4468  7767   0.00   0.00   0.00  -78.16   -3.37    0.00 4.000 0.000 0 1 1 2  1.964  1.964   1.98    0.00     0.00    0.00   1   25.00     0    0    0     1   0.0  1   1    7    0   0.000    0.000    0.000  1
 19   1    1  1 0 2    18  16   100  112  112     0.00000   8.42027 7.32390e-02  4665  8109   0.00   0.00   0.00  -78.16    0.63    0.00 4.000 0.000 0 1 1 2  1.964  1.964   1.98    0.00     0.00    0.00   1   25.00     0    0    0     1   0.0  1   1    7    0   0.000    0.000    0.000  1
 20   1    1  1 0 2    19  16   100  112  112     0.00000   8.42027 7.32390e-02  4875  8475   0.00   0.00   0.00  -78.16    4.63    0.00 4.000 0.000 0 1 1 2  1.964  1.964   1.98    0.00     0.00    0.00   1   25.00     0    0    0     1   0.0  1   1    7    0   0.000    0.000    0.000  1
 21   1    1  1 0 2    20  16   100  112  112     0.00000   8.42027 7.32390e-02  5178  9001   0.00   0.00   0.00  -78.16    8.63    0.00 4.000 0.000 0 1 1 2  1.964  1.964   1.98    0.00     0.00    0.00   1   25.00     0    0    0     1   0.0  1   1    7    0   0.000    0.000    0.000  1
 22   1    1  1 0 2    21  16   100  112  112     0.00000   8.42027 7.32390e-02  5624  9776   0.00   0.00   0.00  -78.16   12.63    0.00 4.000 0.000 0 1 1 2  1.964  1.964   1.98    0.00     0.00    0.00   1   25.00     0    0    0     1   0.0  1   1    7    0   0.000    0.000    0.000  1
 23   1    1  1 0 2    22  16   100  112  112     0.00000   8.42027 7.32390e-02  6106 10614   0.00   0.00   0.00  -78.16   16.63    0.00 4.000 0.000 0 1 1 2  1.964  1.964   1.98    0.00     0.00    0.00   1   25.00     0    0    0     1   0.0  1   1    7    0   0.000    0.000    0.000  1
 24   1    1  1 0 2    23  16   100  112  112     0.00000   8.42027 7.32390e-02  6394 11115   0.00   0.00   0.00  -78.16   20.63    0.00 4.000 0.000 0 1 1 2  1.964  1.964   1.98    0.00     0.00    0.00   1   25.00     0    0    0     1   0.0  1   1    7    0   0.000    0.000    0.000  1
 25   1    1  1 0 2    24  16   100  112  112     0.00000   8.42027 7.32390e-02  6372 11077   0.00   0.00   0.00  -78.16   24.63    0.00 4.000 0.000 0 1 1 2  1.964  1.964   1.98    0.00     0.00    0.00   1   25.00     0    0    0     1   0.0  1   1    7    0   0.000    0.000    0.000  1
 26   1    1  1 0 2    25  16   100  112  112     0.00000   8.42027 7.32390e-02  6505 11309   0.00   0.00   0.00  -78.16   28.63    0.00 4.000 0.000 0 1 1 2  1.964  1.964   1.98    0.00     0.00    0.00   1   25.00     0    0    0     1   0.0  1   1    7    0   0.000    0.000    0.000  1
 27   1    1  1 0 2    26  16   100  112  112     0.00000   8.42027 7.32390e-02  6700 11646   0.00   0.00   0.00  -78.16   32.63    0.00 4.000 0.000 0 1 1 2  1.964  1.964   1.98    0.00     0.00    0.00   1   25.00     0    0    0     1   0.0  1   1    7    0   0.000    0.000    0.000  1
 28   1    1  1 0 2    27  16   100  112  112     0.00000   8.42027 7.32390e-02  6417 11156   0.00   0.00   0.00  -78.16   36.63    0.00 4.000 0.000 0 1 1 2  1.964  1.964   1.98    0.00     0.00    0.00   1   25.00     0    0    0     1   0.0  1   1    7    0   0.000    0.000    0.000  1
 29   1    1  1 0 2    28  16   100  112  112     0.00000   8.42027 7.32390e-02  6340 11021   0.00   0.00   0.00  -78.16   40.63    0.00 4.000 0.000 0 1 1 2  1.964  1.964   1.98    0.00     0.00    0.00   1   25.00     0    0    0     1   0.0  1   1    7    0   0.000    0.000    0.000  1
 30   1    1  1 0 2    29  16   100  112  112     0.00000   8.42027 7.32390e-02  6355 11047   0.00   0.00   0.00  -78.16   44.63    0.00 4.000 0.000 0 1 1 2  1.964  1.964   1.98    0.00     0.00    0.00   1   25.00     0    0    0     1   0.0  1   1    7    0   0.000    0.000    0.000  1
 31   1    1  1 0 2    30  16   100  112  112     0.00000   8.42027 7.32390e-02  6134 10663   0.00   0.00   0.00  -78.16   48.63    0.00 4.000 0.000 0 1 1 2  1.964  1.964   1.98    0.00     0.00    0.00   1   25.00     0    0    0     1   0.0  1   1    7    0   0.000    0.000    0.000  1
 32   1    1  1 0 2    31  16   100  112  112     0.00000   8.42027 7.32390e-02  6249 10862   0.00   0.00   0.00  -78.16   52.63    0.00 4.000 0.000 0 1 1 2  1.964  1.964   1.98    0.00     0.00    0.00   1   25.00     0    0    0     1   0.0  1   1    7    0   0.000    0.000    0.000  1
 33   1    1  1 0 2    32  16   100  112  112     0.00000   8.42027 7.32390e-02  6269 10897   0.00   0.00   0.00  -78.16   56.63    0.00 4.000 0.000 0 1 1 2  1.964  1.964   1.98    0.00     0.00    0.00   1   25.00     0    0    0     1   0.0  1   1    7    0   0.000    0.000    0.000  1
 34   1    1  1 0 2    33  16   100  112  112     0.00000   8.42027 7.32390e-02  6213 10801   0.00   0.00   0.00  -78.16   60.63    0.00 4.000 0.000 0 1 1 2  1.964  1.964   1.98    0.00     0.00    0.00   1   25.00     0    0    0     1   0.0  1   1    7    0   0.000    0.000    0.000  1
 35   1    1  1 0 2    34  16   100  112  112     0.00000   8.42027 7.32390e-02  6384 11097   0.00   0.00   0.00  -78.16   64.63    0.00 4.000 0.000 0 1 1 2  1.964  1.964   1.98    0.00     0.00    0.00   1   25.00     0    0    0     1   0.0  1   1    7    0   0.000    0.000    0.000  1
 36   1    1  1 0 2    35  16   100  112  112     0.00000   8.42027 7.32390e-02  6449 11211   0.00   0.00   0.00  -78.16   68.63    0.00 4.000 0.000 0 1 1 2  1.964  1.964   1.98    0.00     0.00    0.00   1   25.00     0    0    0     1   0.0  1   1    7    0   0.000    0.000    0.000  1
 37   1    1  1 0 2    36  16   100  112  112     0.00000   8.42027 7.32390e-02  6480 11265   0.00   0.00   0.00  -78.16   72.63    0.00 4.000 0.000 0 1 1 2  1.964  1.964   1.98    0.00     0.00    0.00   1   25.00     0    0    0     1   0.0  1   1    7    0   0.000    0.000    0.000  1
 38   1    1  1 0 2    37  16   100  112  112     0.00000   8.42027 7.32390e-02  6345 11029   0.00   0.00   0.00  -78.16   76.63    0.00 4.000 0.000 0 1 1 2  1.964  1.964   1.98    0.00     0.00    0.00   1   25.00     0    0    0     1   0.0  1   1    7    0   0.000    0.000    0.000  1
 39   1    1  1 0 2    38  16   100  112  112     0.00000   8.42027 7.32390e-02  6453 11217   0.00   0.00   0.00  -78.16   80.63    0.00 4.000 0.000 0 1 1 2  1.964  1.964   1.98    0.00     0.00    0.00   1   25.00     0    0    0     1   0.0  1   1    7    0   0.000    0.000    0.000  1
 40   1    1  1 0 2    39  16   100  112  112     0.00000   8.42027 7.32390e-02  6375 11081   0.00   0.00   0.00  -78.16   84.63    0.00 4.000 0.000 0 1 1 2  1.964  1.964   1.98    0.00     0.00    0.00   1   25.00     0    0    0     1   0.0  1   1    7    0   0.000    0.000    0.000  1
 41   1    1  1 0 2    40  16   100  112  112     0.00000   8.42027 7.32390e-02  6282 10920   0.00   0.00   0.00  -78.16   88.63    0.00 4.000 0.000 0 1 1 2  1.964  1.964   1.98    0.00     0.00    0.00   1   25.00     0    0    0     1   0.0  1   1    7    0   0.000    0.000    0.000  1
 42   1    1  1 0 2    41  16   100  112  112     0.00000   8.42027 7.32390e-02  6087 10581   0.00   0.00   0.00  -78.16   92.63    0.00 4.000 0.000 0 1 1 2  1.964  1.964   1.98    0.00     0.00    0.00   1   25.00     0    0    0     1   0.0  1   1    7    0   0.000    0.000    0.000  1
 43   1    1  1 0 2    42  16   100  112  112     0.00000   8.42027 7.32390e-02  1495  2600   0.00   0.00   0.00  -78.16   96.63    0.00 4.000 0.000 0 1 1 2  1.964  1.964   1.98    0.00     0.00    0.00   1   25.00     0    0    0     1   0.0  1   1    7    0   0.000    0.000    0.000  1
  1   1    1  1 18 5    43  16   100  112  112 -1000.00000   0.48840 2.04750e+00     0  2000   0.00   0.00   0.00  -78.16  -71.37    0.00 4.000 0.000 0 1 1 2  1.964  1.964   0.00    0.00     0.00    0.00   1   25.00     0    0    0     1   0.0  1   1    7    0   0.000    0.000    0.000  1
  2   1    1  1 18 5    44  16   100  112  112 -1000.00000   0.48840 2.04750e+00     0  2000   0.00   0.00   0.00  -78.16  -67.37    0.00 4.000 0.000 0 1 1 2  1.964  1.964   0.00    0.00     0.00    0.00   1   25.00     0    0    0     1   0.0  1   1    7    0   0.000    0.000    0.000  1
  3   1    1  1 18 5    45  16   100  112  112 -1000.00000   0.48840 2.04750e+00     0  2000   0.00   0.00   0.00  -78.16  -63.37    0.00 4.000 0.000 0 1 1 2  1.964  1.964   0.00    0.00     0.00    0.00   1   25.00     0    0    0     1   0.0  1   1    7    0   0.000    0.000    0.000  1
  4   1    1  1 18 5    46  16   100  112  112 -1000.00000   0.48840 2.04750e+00     0  2000   0.00   0.00   0.00  -78.16  -59.37    0.00 4.000 0.000 0 1 1 2  1.964  1.964   0.00    0.00     0.00    0.00   1   25.00     0    0    0     1   0.0  1   1    7    0   0.000    0.000    0.000  1
  5   1    1  1 18 5    47  16   100  112  112 -1000.00000   0.48840 2.04750e+00     0  2000   0.00   0.00   0.00  -78.16  -55.37    0.00 4.000 0.000 0 1 1 2  1.964  1.964   0.00    0.00     0.00    0.00   1   25.00     0    0    0     1   0.0  1   1    7    0   0.000    0.000    0.000  1
  6   1    1  1 18 5    48  16   100  112  112 -1000.00000   0.48840 2.04750e+00     0  2000   0.00   0.00   0.00  -78.16  -51.37    0.00 4.000 0.000 0 1 1 2  1.964  1.964   0.00    0.00     0.00    0.00   1   25.00     0    0    0     1   0.0  1   1    7    0   0.000    0.000    0.000  1
  7   1    1  1 18 5    49  16   100  112  112 -1000.00000   0.48840 2.04750e+00     0  2000   0.00   0.00   0.00  -78.16  -47.37    0.00 4.000 0.000 0 1 1 2  1.964  1.964   0.00    0.00     0.00    0.00   1   25.00     0    0    0     1   0.0  1   1    7    0   0.000    0.000    0.000  1
  8   1    1  1 18 5    50  16   100  112  112 -1000.00000   0.48840 2.04750e+00     0  2000   0.00   0.00   0.00  -78.16  -43.37    0.00 4.000 0.000 0 1 1 2  1.964  1.964   0.00    0.00     0.00    0.00   1   25.00     0    0    0     1   0.0  1   1    7    0   0.000    0.000    0.000  1
  9   1    1  1 18 5    51  16   100  112  112 -1000.00000   0.48840 2.04750e+00     0  2000   0.00   0.00   0.00  -78.16  -39.37    0.00 4.000 0.000 0 1 1 2  1.964  1.964   0.00    0.00     0.00    0.00   1   25.00     0    0    0     1   0.0  1   1    7    0   0.000    0.000    0.000  1
 10   1    1  1 18 5    52  16   100  112  112 -1000.00000   0.48840 2.04750e+00     0  2000   0.00   0.00   0.00  -78.16  -35.37    0.00 4.000 0.000 0 1 1 2  1.964  1.964   0.00    0.00     0.00    0.00   1   25.00     0    0    0     1   0.0  1   1    7    0   0.000    0.000    0.000  1
 11   1    1  1 18 5    53  16   100  112  112 -1000.00000   0.48840 2.04750e+00     0  2000   0.00   0.00   0.00  -78.16  -31.37    0.00 4.000 0.000 0 1 1 2  1.964  1.964   0.00    0.00     0.00    0.00   1   25.00     0    0    0     1   0.0  1   1    7    0   0.000    0.000    0.000  1
 12   1    1  1 18 5    54  16   100  112  112 -1000.00000   0.48840 2.04750e+00     0  2000   0.00   0.00   0.00  -78.16  -27.37    0.00 4.000 0.000 0 1 1 2  1.964  1.964   0.00    0.00     0.00    0.00   1   25.00     0    0    0     1   0.0  1   1    7    0   0.000    0.000    0.000  1
 13   1    1  1 18 5    55  16   100  112  112 -1000.00000   0.48840 2.04750e+00     0  2000   0.00   0.00   0.00  -78.16  -23.37    0.00 4.000 0.000 0 1 1 2  1.964  1.964   0.00    0.00     0.00    0.00   1   25.00     0    0    0     1   0.0  1   1    7    0   0.000    0.000    0.000  1
 14   1    1  1 18 5    56  16   100  112  112 -1000.00000   0.48840 2.04750e+00     0  2000   0.00   0.00   0.00  -78.16  -19.37    0.00 4.000 0.000 0 1 1 2  1.964  1.964   0.00    0.00     0.00    0.00   1   25.00     0    0    0     1   0.0  1   1    7    0   0.000    0.000    0.000  1
 15   1    1  1 18 5    57  16   100  112  112 -1000.00000   0.48840 2.04750e+00     0  2000   0.00   0.00   0.00  -78.16  -15.37    0.00 4.000 0.000 0 1 1 2  1.964  1.964   0.00    0.00     0.00    0.00   1   25.00     0    0    0     1   0.0  1   1    7    0   0.000    0.000    0.000  1
 16   1    1  1 18 5    58  16   100  112  112 -1000.00000   0.48840 2.04750e+00     0  2000   0.00   0.00   0.00  -78.16  -11.37    0.00 4.000 0.000 0 1 1 2  1.964  1.964   0.00    0.00     0.00    0.00   1   25.00     0    0    0     1   0.0  1   1    7    0   0.000    0.000    0.000  1
 17   1    1  1 18 5    59  16   100  112  112 -1000.00000   0.48840 2.04750e+00     0  2000   0.00   0.00   0.00  -78.16   -7.37    0.00 4.000 0.000 0 1 1 2  1.964  1.964   0.00    0.00     0.00    0.00   1   25.00     0    0    0     1   0.0  1   1    7    0   0.000    0.000    0.000  1
 18   1    1  1 18 5    60  16   100  112  112 -1000.00000   0.48840 2.04750e+00     0  2000   0.00   0.00   0.00  -78.16   -3.37    0.00 4.000 0.000 0 1 1 2  1.964  1.964   0.00    0.00     0.00    0.00   1   25.00     0    0    0     1   0.0  1   1    7    0   0.000    0.000    0.000  1
 19   1    1  1 18 5    61  16   100  112  112 -1000.00000   0.48840 2.04750e+00     0  2000   0.00   0.00   0.00  -78.16    0.63    0.00 4.000 0.000 0 1 1 2  1.964  1.964   0.00    0.00     0.00    0.00   1   25.00     0    0    0     1   0.0  1   1    7    0   0.000    0.000    0.000  1
 20   1    1  1 18 5    62  16   100  112  112 -1000.00000   0.48840 2.04750e+00     0  2000   0.00   0.00   0.00  -78.16    4.63    0.00 4.000 0.000 0 1 1 2  1.964  1.964   0.00    0.00     0.00    0.00   1   25.00     0    0    0     1   0.0  1   1    7    0   0.000    0.000    0.000  1
 21   1    1  1 18 5    63  16   100  112  112 -1000.00000   0.48840 2.04750e+00     0  2000   0.00   0.00   0.00  -78.16    8.63    0.00 4.000 0.000 0 1 1 2  1.964  1.964   0.00    0.00     0.00    0.00   1   25.00     0    0    0     1   0.0  1   1    7    0   0.000    0.000    0.000  1
 22   1    1  1 18 5    64  16   100  112  112 -1000.00000   0.48840 2.04750e+00     0  2000   0.00   0.00   0.00  -78.16   12.63    0.00 4.000 0.000 0 1 1 2  1.964  1.964   0.00    0.00     0.00    0.00   1   25.00     0    0    0     1   0.0  1   1    7    0   0.000    0.000    0.000  1
 23   1    1  1 18 5    65  16   100  112  112 -1000.00000   0.48840 2.04750e+00     0  2000   0.00   0.00   0.00  -78.16   16.63    0.00 4.000 0.000 0 1 1 2  1.964  1.964   0.00    0.00     0.00    0.00   1   25.00     0    0    0     1   0.0  1   1    7    0   0.000    0.000    0.000  1
 24   1    1  1 18 5    66  16   100  112  112 -1000.00000   0.48840 2.04750e+00     0  2000   0.00   0.00   0.00  -78.16   20.63    0.00 4.000 0.000 0 1 1 2  1.964  1.964   0.00    0.00     0.00    0.00   1   25.00     0    0    0     1   0.0  1   1    7    0   0.000    0.000    0.000  1
 25   1    1  1 18 5    67  16   100  112  112 -1000.00000   0.48840 2.04750e+00     0  2000   0.00   0.00   0.00  -78.16   24.63    0.00 4.000 0.000 0 1 1 2  1.964  1.964   0.00    0.00     0.00    0.00   1   25.00     0    0    0     1   0.0  1   1    7    0   0.000    0.000    0.000  1
 26   1    1  1 18 5    68  16   100  112  112 -1000.00000   0.48840 2.04750e+00     0  2000   0.00   0.00   0.00  -78.16   28.63    0.00 4.000 0.000 0 1 1 2  1.964  1.964   0.00    0.00     0.00    0.00   1   25.00     0    0    0     1   0.0  1   1    7    0   0.000    0.000    0.000  1
 27   1    1  1 18 5    69  16   100  112  112 -1000.00000   0.48840 2.04750e+00     0  2000   0.00   0.00   0.00  -78.16   32.63    0.00 4.000 0.000 0 1 1 2  1.964  1.964   0.00    0.00     0.00    0.00   1   25.00     0    0    0     1   0.0  1   1    7    0   0.000    0.000    0.000  1
 28   1    1  1 18 5    70  16   100  112  112 -1000.00000   0.48840 2.04750e+00     0  2000   0.00   0.00   0.00  -78.16   36.63    0.00 4.000 0.000 0 1 1 2  1.964  1.964   0.00    0.00     0.00    0.00   1   25.00     0    0    0     1   0.0  1   1    7    0   0.000    0.000    0.000  1
 29   1    1  1 18 5    71  16   100  112  112 -1000.00000   0.48840 2.04750e+00     0  2000   0.00   0.00   0.00  -78.16   40.63    0.00 4.000 0.000 0 1 1 2  1.964  1.964   0.00    0.00     0.00    0.00   1   25.00     0    0    0     1   0.0  1   1    7    0   0.000    0.000    0.000  1
 30   1    1  1 18 5    72  16   100  112  112 -1000.00000   0.48840 2.04750e+00     0  2000   0.00   0.00   0.00  -78.16   44.63    0.00 4.000 0.000 0 1 1 2  1.964  1.964   0.00    0.00     0.00    0.00   1   25.00     0    0    0     1   0.0  1   1    7    0   0.000    0.000    0.000  1
 31   1    1  1 18 5    73  16   100  112  112 -1000.00000   0.48840 2.04750e+00     0  2000   0.00   0.00   0.00  -78.16   48.63    0.00 4.000 0.000 0 1 1 2  1.964  1.964   0.00    0.00     0.00    0.00   1   25.00     0    0    0     1   0.0  1   1    7    0   0.000    0.000    0.000  1
 32   1    1  1 18 5    74  16   100  112  112 -1000.00000   0.48840 2.04750e+00     0  2000   0.00   0.00   0.00  -78.16   52.63    0.00 4.000 0.000 0 1 1 2  1.964  1.964   0.00    0.00     0.00    0.00   1   25.00     0    0    0     1   0.0  1   1    7    0   0.000    0.000    0.000  1
 33   1    1  1 18 5    75  16   100  112  112 -1000.00000   0.48840 2.04750e+00     0  2000   0.00   0.00   0.00  -78.16   56.63    0.00 4.000 0.000 0 1 1 2  1.964  1.964   0.00    0.00     0.00    0.00   1   25.00     0    0    0     1   0.0  1   1    7    0   0.000    0.000    0.000  1
 34   1    1  1 18 5    76  16   100  112  112 -1000.00000   0.48840 2.04750e+00     0  2000   0.00   0.00   0.00  -78.16   60.63    0.00 4.000 0.000 0 1 1 2  1.964  1.964   0.00    0.00     0.00    0.00   1   25.00     0    0    0     1   0.0  1   1    7    0   0.000    0.000    0.000  1
 35   1    1  1 18 5    77  16   100  112  112 -1000.00000   0.48840 2.04750e+00     0  2000   0.00   0.00   0.00  -78.16   64.63    0.00 4.000 0.000 0 1 1 2  1.964  1.964   0.00    0.00     0.00    0.00   1   25.00     0    0    0     1   0.0  1   1    7    0   0.000    0.000    0.000  1
 36   1    1  1 18 5    78  16   100  112  112 -1000.00000   0.48840 2.04750e+00     0  2000   0.00   0.00   0.00  -78.16   68.63    0.00 4.000 0.000 0 1 1 2  1.964  1.964   0.00    0.00     0.00    0.00   1   25.00     0    0    0     1   0.0  1   1    7    0   0.000    0.000    0.000  1
 37   1    1  1 18 5    79  16   100  112  112 -1000.00000   0.48840 2.04750e+00     0  2000   0.00   0.00   0.00  -78.16   72.63    0.00 4.000 0.000 0 1 1 2  1.964  1.964   0.00    0.00     0.00    0.00   1   25.00     0    0    0     1   0.0  1   1    7    0   0.000    0.000    0.000  1
 38   1    1  1 18 5    80  16   100  112  112 -1000.00000   0.48840 2.04750e+00     0  2000   0.00   0.00   0.00  -78.16   76.63    0.00 4.000 0.000 0 1 1 2  1.964  1.964   0.00    0.00     0.00    0.00   1   25.00     0    0    0     1   0.0  1   1    7    0   0.000    0.000    0.000  1
 39   1    1  1 18 5    81  16   100  112  112 -1000.00000   0.48840 2.04750e+00     0  2000   0.00   0.00   0.00  -78.16   80.63    0.00 4.000 0.000 0 1 1 2  1.964  1.964   0.00    0.00     0.00    0.00   1   25.00     0    0    0     1   0.0  1   1    7    0   0.000    0.000    0.000  1
 40   1    1  1 18 5    82  16   100  112  112 -1000.00000   0.48840 2.04750e+00     0  2000   0.00   0.00   0.00  -78.16   84.63    0.00 4.000 0.000 0 1 1 2  1.964  1.964   0.00    0.00     0.00    0.00   1   25.00     0    0    0     1   0.0  1   1    7    0   0.000    0.000    0.000  1
 41   1    1  1 18 5    83  16   100  112  112 -1000.00000   0.48840 2.04750e+00     0  2000   0.00   0.00   0.00  -78.16   88.63    0.00 4.000 0.000 0 1 1 2  1.964  1.964   0.00    0.00     0.00    0.00   1   25.00     0    0    0     1   0.0  1   1    7    0   0.000    0.000    0.000  1
 42   1    1  1 18 5    84  16   100  112  112 -1000.00000   0.48840 2.04750e+00     0  2000   0.00   0.00   0.00  -78.16   92.63    0.00 4.000 0.000 0 1 1 2  1.964  1.964   0.00    0.00     0.00    0.00   1   25.00     0    0    0     1   0.0  1   1    7    0   0.000    0.000    0.000  1
