# === DATA DESCRIPTION FILE ======================================================
#
# CAUTION - Investigational device.
# Limited by Federal Law to investigational use.
#
# Dataset name: GRISSOM_PHANTOM_26AUG2022_12_01_08.52.24_(WIP_CoilFieldMaps) (convert_dicom_to_xmlrec.pl v0.4)
#
# CLINICAL TRYOUT             Research image export tool     V4.2
#
# === GENERAL INFORMATION ========================================================
#
.    Patient name                       :   GRISSOM_PHANTOM_26AUG2022
.    Examination name                   :   
.    Protocol name                      :   WIP CoilFieldMaps
.    Examination date/time              :   2022.08.26 / 08:00:41
.    Series Type                        :   Image   MRSERIES
.    Acquisition nr                     :   12
.    Reconstruction nr                  :   1
.    Scan Duration [sec]                :   449.4
.    Max. number of cardiac phases      :   1
.    Max. number of echoes              :   1
.    Max. number of slices/locations    :   16
.    Max. number of dynamics            :   16
.    Max. number of mixes               :   1
.    Patient position                   :   HeadFirstSupine
.    Preparation direction              :   Right-Left
.    Technique                          :   T1FFE
.    Scan resolution  (x, y)            :   84  85
.    Scan mode                          :   3D
.    Repetition time [ms]               :   15.000  
.    FOV (ap,fh,rl) [mm]                :   96.000  166.000  118.571
.    Water Fat shift [pixels]           :   1.147
.    Angulation midslice(ap,fh,rl)[degr]:   0.000  0.000  -0.003
.    Off Centre midslice(ap,fh,rl) [mm] :   -68.216  17.836  6.453
.    Flow compensation <0=no 1=yes> ?   :   0
.    Presaturation     <0=no 1=yes> ?   :   0
.    Phase encoding velocity [cm/sec]   :   0.000000  0.000000  0.000000
.    MTC               <0=no 1=yes> ?   :   0
.    SPIR              <0=no 1=yes> ?   :   0
.    EPI factor        <0,1=no EPI>     :   1
.    Dynamic scan      <0=no 1=yes> ?   :   1
.    Diffusion         <0=no 1=yes> ?   :   0
.    Diffusion echo time [ms]           :   0.0000
.    Max. number of diffusion values    :   1
.    Max. number of gradient orients    :   1
.    Number of label types   <0=no ASL> :   0
#
# === PIXEL VALUES =============================================================
#  PV = pixel value in REC file, FP = floating point value, DV = displayed value on console
#  RS = rescale slope,           RI = rescale intercept,    SS = scale slope
#  DV = PV * RS + RI             FP = DV / (RS * SS)
#
# === IMAGE INFORMATION DEFINITION =============================================
#  The rest of this file contains ONE line per image, this line contains the following information:
#
#  slice number                             (integer)
#  echo number                              (integer)
#  dynamic scan number                      (integer)
#  cardiac phase number                     (integer)
#  image_type_mr                            (integer)
#  scanning sequence                        (integer)
#  index in REC file (in images)            (integer)
#  image pixel size (in bits)               (integer)
#  scan percentage                          (integer)
#  recon resolution (x y)                   (2*integer)
#  rescale intercept                        (float)
#  rescale slope                            (float)
#  scale slope                              (float)
#  window center                            (integer)
#  window width                             (integer)
#  image angulation (ap,fh,rl in degrees )  (3*float)
#  image offcentre (ap,fh,rl in mm )        (3*float)
#  slice thickness (in mm )                 (float)
#  slice gap (in mm )                       (float)
#  image_display_orientation                (integer)
#  slice orientation ( TRA/SAG/COR )        (integer)
#  fmri_status_indication                   (integer)
#  image_type_ed_es  (end diast/end syst)   (integer)
#  pixel spacing (x,y) (in mm)              (2*float)
#  echo_time                                (float)
#  dyn_scan_begin_time                      (float)
#  trigger_time                             (float)
#  diffusion_b_factor                       (float)
#  number of averages                       (integer)
#  image_flip_angle (in degrees)            (float)
#  cardiac frequency   (bpm)                (integer)
#  minimum RR-interval (in ms)              (integer)
#  maximum RR-interval (in ms)              (integer)
#  TURBO factor  <0=no turbo>               (integer)
#  Inversion delay (in ms)                  (float)
#  diffusion b value number    (imagekey!)  (integer)
#  gradient orientation number (imagekey!)  (integer)
#  contrast type                            (string)
#  diffusion anisotropy type                (string)
#  diffusion (ap, fh, rl)                   (3*float)
#  label type (ASL)            (imagekey!)  (integer)
#
# === IMAGE INFORMATION ==========================================================
#  sl ec  dyn ph ty    idx pix scan% rec size                (re)scale              window        angulation              offcentre        thick   gap   info      spacing     echo     dtime   ttime    diff  avg  flip    freq   RR-int  turbo delay b grad cont anis         diffusion       L.ty

  1   1    1  1 0 2     0  16    79  224  224     0.00000   1.78364 3.92684e-03   502   873   0.00   0.00  -0.00 -113.22   17.84    6.45 6.000 0.000 0 3 1 2  0.741  0.741   2.69    0.00     0.00    0.00   1   15.00     0    0    0     1   0.0  1   1    7    0   0.000    0.000    0.000  1
  2   1    1  1 0 2     1  16    79  224  224     0.00000   1.78364 3.92684e-03   954  1658   0.00   0.00  -0.00 -107.22   17.84    6.45 6.000 0.000 0 3 1 2  0.741  0.741   2.69    0.00     0.00    0.00   1   15.00     0    0    0     1   0.0  1   1    7    0   0.000    0.000    0.000  1
  3   1    1  1 0 2     2  16    79  224  224     0.00000   1.78364 3.92684e-03  1047  1820   0.00   0.00  -0.00 -101.22   17.84    6.45 6.000 0.000 0 3 1 2  0.741  0.741   2.69    0.00     0.00    0.00   1   15.00     0    0    0     1   0.0  1   1    7    0   0.000    0.000    0.000  1
  4   1    1  1 0 2     3  16    79  224  224     0.00000   1.78364 3.92684e-03  1055  1834   0.00   0.00  -0.00  -95.22   17.84    6.45 6.000 0.000 0 3 1 2  0.741  0.741   2.69    0.00     0.00    0.00   1   15.00     0    0    0     1   0.0  1   1    7    0   0.000    0.000    0.000  1
  5   1    1  1 0 2     4  16    79  224  224     0.00000   1.78364 3.92684e-03  1079  1875   0.00   0.00  -0.00  -89.22   17.84    6.45 6.000 0.000 0 3 1 2  0.741  0.741   2.69    0.00     0.00    0.00   1   15.00     0    0    0     1   0.0  1   1    7    0   0.000    0.000    0.000  1
  6   1    1  1 0 2     5  16    79  224  224     0.00000   1.78364 3.92684e-03  1067  1855   0.00   0.00  -0.00  -83.22   17.84    6.45 6.000 0.000 0 3 1 2  0.741  0.741   2.69    0.00     0.00    0.00   1   15.00     0    0    0     1   0.0  1   1    7    0   0.000    0.000    0.000  1
  7   1    1  1 0 2     6  16    79  224  224     0.00000   1.78364 3.92684e-03  1083  1883   0.00   0.00  -0.00  -77.22   17.84    6.45 6.000 0.000 0 3 1 2  0.741  0.741   2.69    0.00     0.00    0.00   1   15.00     0    0    0     1   0.0  1   1    7    0   0.000    0.000    0.000  1
  8   1    1  1 0 2     7  16    79  224  224     0.00000   1.78364 3.92684e-03  1072  1863   0.00   0.00  -0.00  -71.22   17.84    6.45 6.000 0.000 0 3 1 2  0.741  0.741   2.69    0.00     0.00    0.00   1   15.00     0    0    0     1   0.0  1   1    7    0   0.000    0.000    0.000  1
  9   1    1  1 0 2     8  16    79  224  224     0.00000   1.78364 3.92684e-03  1070  1860   0.00   0.00  -0.00  -65.22   17.84    6.45 6.000 0.000 0 3 1 2  0.741  0.741   2.69    0.00     0.00    0.00   1   15.00     0    0    0     1   0.0  1   1    7    0   0.000    0.000    0.000  1
 10   1    1  1 0 2     9  16    79  224  224     0.00000   1.78364 3.92684e-03  1053  1831   0.00   0.00  -0.00  -59.22   17.84    6.45 6.000 0.000 0 3 1 2  0.741  0.741   2.69    0.00     0.00    0.00   1   15.00     0    0    0     1   0.0  1   1    7    0   0.000    0.000    0.000  1
 11   1    1  1 0 2    10  16    79  224  224     0.00000   1.78364 3.92684e-03  1025  1782   0.00   0.00  -0.00  -53.22   17.83    6.45 6.000 0.000 0 3 1 2  0.741  0.741   2.69    0.00     0.00    0.00   1   15.00     0    0    0     1   0.0  1   1    7    0   0.000    0.000    0.000  1
 12   1    1  1 0 2    11  16    79  224  224     0.00000   1.78364 3.92684e-03  1011  1758   0.00   0.00  -0.00  -47.22   17.83    6.45 6.000 0.000 0 3 1 2  0.741  0.741   2.69    0.00     0.00    0.00   1   15.00     0    0    0     1   0.0  1   1    7    0   0.000    0.000    0.000  1
 13   1    1  1 0 2    12  16    79  224  224     0.00000   1.78364 3.92684e-03  1009  1754   0.00   0.00  -0.00  -41.22   17.83    6.45 6.000 0.000 0 3 1 2  0.741  0.741   2.69    0.00     0.00    0.00   1   15.00     0    0    0     1   0.0  1   1    7    0   0.000    0.000    0.000  1
 14   1    1  1 0 2    13  16    79  224  224     0.00000   1.78364 3.92684e-03   938  1631   0.00   0.00  -0.00  -35.22   17.83    6.45 6.000 0.000 0 3 1 2  0.741  0.741   2.69    0.00     0.00    0.00   1   15.00     0    0    0     1   0.0  1   1    7    0   0.000    0.000    0.000  1
 15   1    1  1 0 2    14  16    79  224  224     0.00000   1.78364 3.92684e-03   822  1429   0.00   0.00  -0.00  -29.22   17.83    6.45 6.000 0.000 0 3 1 2  0.741  0.741   2.69    0.00     0.00    0.00   1   15.00     0    0    0     1   0.0  1   1    7    0   0.000    0.000    0.000  1
 16   1    1  1 0 2    15  16    79  224  224     0.00000   1.78364 3.92684e-03   489   850   0.00   0.00  -0.00  -23.22   17.83    6.45 6.000 0.000 0 3 1 2  0.741  0.741   2.69    0.00     0.00    0.00   1   15.00     0    0    0     1   0.0  1   1    7    0   0.000    0.000    0.000  1
  1   1    1  1 18 5    16  16    79  224  224  -250.00000   0.12210 8.19000e+00     0   500   0.00   0.00  -0.00 -113.22   17.84    6.45 6.000 0.000 0 3 1 2  0.741  0.741   0.00    0.00     0.00    0.00   1   15.00     0    0    0     1   0.0  1   1    7    0   0.000    0.000    0.000  1
  2   1    1  1 18 5    17  16    79  224  224  -250.00000   0.12210 8.19000e+00     0   500   0.00   0.00  -0.00 -107.22   17.84    6.45 6.000 0.000 0 3 1 2  0.741  0.741   0.00    0.00     0.00    0.00   1   15.00     0    0    0     1   0.0  1   1    7    0   0.000    0.000    0.000  1
  3   1    1  1 18 5    18  16    79  224  224  -250.00000   0.12210 8.19000e+00     0   500   0.00   0.00  -0.00 -101.22   17.84    6.45 6.000 0.000 0 3 1 2  0.741  0.741   0.00    0.00     0.00    0.00   1   15.00     0    0    0     1   0.0  1   1    7    0   0.000    0.000    0.000  1
  4   1    1  1 18 5    19  16    79  224  224  -250.00000   0.12210 8.19000e+00     0   500   0.00   0.00  -0.00  -95.22   17.84    6.45 6.000 0.000 0 3 1 2  0.741  0.741   0.00    0.00     0.00    0.00   1   15.00     0    0    0     1   0.0  1   1    7    0   0.000    0.000    0.000  1
  5   1    1  1 18 5    20  16    79  224  224  -250.00000   0.12210 8.19000e+00     0   500   0.00   0.00  -0.00  -89.22   17.84    6.45 6.000 0.000 0 3 1 2  0.741  0.741   0.00    0.00     0.00    0.00   1   15.00     0    0    0     1   0.0  1   1    7    0   0.000    0.000    0.000  1
  6   1    1  1 18 5    21  16    79  224  224  -250.00000   0.12210 8.19000e+00     0   500   0.00   0.00  -0.00  -83.22   17.84    6.45 6.000 0.000 0 3 1 2  0.741  0.741   0.00    0.00     0.00    0.00   1   15.00     0    0    0     1   0.0  1   1    7    0   0.000    0.000    0.000  1
  7   1    1  1 18 5    22  16    79  224  224  -250.00000   0.12210 8.19000e+00     0   500   0.00   0.00  -0.00  -77.22   17.84    6.45 6.000 0.000 0 3 1 2  0.741  0.741   0.00    0.00     0.00    0.00   1   15.00     0    0    0     1   0.0  1   1    7    0   0.000    0.000    0.000  1
  8   1    1  1 18 5    23  16    79  224  224  -250.00000   0.12210 8.19000e+00     0   500   0.00   0.00  -0.00  -71.22   17.84    6.45 6.000 0.000 0 3 1 2  0.741  0.741   0.00    0.00     0.00    0.00   1   15.00     0    0    0     1   0.0  1   1    7    0   0.000    0.000    0.000  1
  9   1    1  1 18 5    24  16    79  224  224  -250.00000   0.12210 8.19000e+00     0   500   0.00   0.00  -0.00  -65.22   17.84    6.45 6.000 0.000 0 3 1 2  0.741  0.741   0.00    0.00     0.00    0.00   1   15.00     0    0    0     1   0.0  1   1    7    0   0.000    0.000    0.000  1
 10   1    1  1 18 5    25  16    79  224  224  -250.00000   0.12210 8.19000e+00     0   500   0.00   0.00  -0.00  -59.22   17.84    6.45 6.000 0.000 0 3 1 2  0.741  0.741   0.00    0.00     0.00    0.00   1   15.00     0    0    0     1   0.0  1   1    7    0   0.000    0.000    0.000  1
 11   1    1  1 18 5    26  16    79  224  224  -250.00000   0.12210 8.19000e+00     0   500   0.00   0.00  -0.00  -53.22   17.83    6.45 6.000 0.000 0 3 1 2  0.741  0.741   0.00    0.00     0.00    0.00   1   15.00     0    0    0     1   0.0  1   1    7    0   0.000    0.000    0.000  1
 12   1    1  1 18 5    27  16    79  224  224  -250.00000   0.12210 8.19000e+00     0   500   0.00   0.00  -0.00  -47.22   17.83    6.45 6.000 0.000 0 3 1 2  0.741  0.741   0.00    0.00     0.00    0.00   1   15.00     0    0    0     1   0.0  1   1    7    0   0.000    0.000    0.000  1
 13   1    1  1 18 5    28  16    79  224  224  -250.00000   0.12210 8.19000e+00     0   500   0.00   0.00  -0.00  -41.22   17.83    6.45 6.000 0.000 0 3 1 2  0.741  0.741   0.00    0.00     0.00    0.00   1   15.00     0    0    0     1   0.0  1   1    7    0   0.000    0.000    0.000  1
 14   1    1  1 18 5    29  16    79  224  224  -250.00000   0.12210 8.19000e+00     0   500   0.00   0.00  -0.00  -35.22   17.83    6.45 6.000 0.000 0 3 1 2  0.741  0.741   0.00    0.00     0.00    0.00   1   15.00     0    0    0     1   0.0  1   1    7    0   0.000    0.000    0.000  1
 15   1    1  1 18 5    30  16    79  224  224  -250.00000   0.12210 8.19000e+00     0   500   0.00   0.00  -0.00  -29.22   17.83    6.45 6.000 0.000 0 3 1 2  0.741  0.741   0.00    0.00     0.00    0.00   1   15.00     0    0    0     1   0.0  1   1    7    0   0.000    0.000    0.000  1
 16   1    1  1 18 5    31  16    79  224  224  -250.00000   0.12210 8.19000e+00     0   500   0.00   0.00  -0.00  -23.22   17.83    6.45 6.000 0.000 0 3 1 2  0.741  0.741   0.00    0.00     0.00    0.00   1   15.00     0    0    0     1   0.0  1   1    7    0   0.000    0.000    0.000  1
  1   1    2  1 0 2    32  16    79  224  224     0.00000   1.78364 3.92684e-03   498   865   0.00   0.00  -0.00 -113.22   17.84    6.45 6.000 0.000 0 3 2 2  0.741  0.741   2.69   28.08     0.00    0.00   1   15.00     0    0    0     1   0.0  1   1    7    0   0.000    0.000    0.000  1
  2   1    2  1 0 2    33  16    79  224  224     0.00000   1.78364 3.92684e-03   942  1637   0.00   0.00  -0.00 -107.22   17.84    6.45 6.000 0.000 0 3 2 2  0.741  0.741   2.69   28.08     0.00    0.00   1   15.00     0    0    0     1   0.0  1   1    7    0   0.000    0.000    0.000  1
  3   1    2  1 0 2    34  16    79  224  224     0.00000   1.78364 3.92684e-03  1029  1789   0.00   0.00  -0.00 -101.22   17.84    6.45 6.000 0.000 0 3 2 2  0.741  0.741   2.69   28.08     0.00    0.00   1   15.00     0    0    0     1   0.0  1   1    7    0   0.000    0.000    0.000  1
  4   1    2  1 0 2    35  16    79  224  224     0.00000   1.78364 3.92684e-03  1041  1810   0.00   0.00  -0.00  -95.22   17.84    6.45 6.000 0.000 0 3 2 2  0.741  0.741   2.69   28.08     0.00    0.00   1   15.00     0    0    0     1   0.0  1   1    7    0   0.000    0.000    0.000  1
  5   1    2  1 0 2    36  16    79  224  224     0.00000   1.78364 3.92684e-03  1066  1853   0.00   0.00  -0.00  -89.22   17.84    6.45 6.000 0.000 0 3 2 2  0.741  0.741   2.69   28.08     0.00    0.00   1   15.00     0    0    0     1   0.0  1   1    7    0   0.000    0.000    0.000  1
  6   1    2  1 0 2    37  16    79  224  224     0.00000   1.78364 3.92684e-03  1065  1851   0.00   0.00  -0.00  -83.22   17.84    6.45 6.000 0.000 0 3 2 2  0.741  0.741   2.69   28.08     0.00    0.00   1   15.00     0    0    0     1   0.0  1   1    7    0   0.000    0.000    0.000  1
  7   1    2  1 0 2    38  16    79  224  224     0.00000   1.78364 3.92684e-03  1073  1865   0.00   0.00  -0.00  -77.22   17.84    6.45 6.000 0.000 0 3 2 2  0.741  0.741   2.69   28.08     0.00    0.00   1   15.00     0    0    0     1   0.0  1   1    7    0   0.000    0.000    0.000  1
  8   1    2  1 0 2    39  16    79  224  224     0.00000   1.78364 3.92684e-03  1072  1863   0.00   0.00  -0.00  -71.22   17.84    6.45 6.000 0.000 0 3 2 2  0.741  0.741   2.69   28.08     0.00    0.00   1   15.00     0    0    0     1   0.0  1   1    7    0   0.000    0.000    0.000  1
  9   1    2  1 0 2    40  16    79  224  224     0.00000   1.78364 3.92684e-03  1068  1856   0.00   0.00  -0.00  -65.22   17.84    6.45 6.000 0.000 0 3 2 2  0.741  0.741   2.69   28.08     0.00    0.00   1   15.00     0    0    0     1   0.0  1   1    7    0   0.000    0.000    0.000  1
 10   1    2  1 0 2    41  16    79  224  224     0.00000   1.78364 3.92684e-03  1044  1815   0.00   0.00  -0.00  -59.22   17.84    6.45 6.000 0.000 0 3 2 2  0.741  0.741   2.69   28.08     0.00    0.00   1   15.00     0    0    0     1   0.0  1   1    7    0   0.000    0.000    0.000  1
 11   1    2  1 0 2    42  16    79  224  224     0.00000   1.78364 3.92684e-03  1033  1795   0.00   0.00  -0.00  -53.22   17.83    6.45 6.000 0.000 0 3 2 2  0.741  0.741   2.69   28.08     0.00    0.00   1   15.00     0    0    0     1   0.0  1   1    7    0   0.000    0.000    0.000  1
 12   1    2  1 0 2    43  16    79  224  224     0.00000   1.78364 3.92684e-03   999  1737   0.00   0.00  -0.00  -47.22   17.83    6.45 6.000 0.000 0 3 2 2  0.741  0.741   2.69   28.08     0.00    0.00   1   15.00     0    0    0     1   0.0  1   1    7    0   0.000    0.000    0.000  1
 13   1    2  1 0 2    44  16    79  224  224     0.00000   1.78364 3.92684e-03   986  1715   0.00   0.00  -0.00  -41.22   17.83    6.45 6.000 0.000 0 3 2 2  0.741  0.741   2.69   28.08     0.00    0.00   1   15.00     0    0    0     1   0.0  1   1    7    0   0.000    0.000    0.000  1
 14   1    2  1 0 2    45  16    79  224  224     0.00000   1.78364 3.92684e-03   932  1621   0.00   0.00  -0.00  -35.22   17.83    6.45 6.000 0.000 0 3 2 2  0.741  0.741   2.69   28.08     0.00    0.00   1   15.00     0    0    0     1   0.0  1   1    7    0   0.000    0.000    0.000  1
 15   1    2  1 0 2    46  16    79  224  224     0.00000   1.78364 3.92684e-03   828  1439   0.00   0.00  -0.00  -29.22   17.83    6.45 6.000 0.000 0 3 2 2  0.741  0.741   2.69   28.08     0.00    0.00   1   15.00     0    0    0     1   0.0  1   1    7    0   0.000    0.000    0.000  1
 16   1    2  1 0 2    47  16    79  224  224     0.00000   1.78364 3.92684e-03   486   846   0.00   0.00  -0.00  -23.22   17.83    6.45 6.000 0.000 0 3 2 2  0.741  0.741   2.69   28.08     0.00    0.00   1   15.00     0    0    0     1   0.0  1   1    7    0   0.000    0.000    0.000  1
  1   1    2  1 18 5    48  16    79  224  224  -250.00000   0.12210 8.19000e+00     0   500   0.00   0.00  -0.00 -113.22   17.84    6.45 6.000 0.000 0 3 2 2  0.741  0.741   0.00   28.08     0.00    0.00   1   15.00     0    0    0     1   0.0  1   1    7    0   0.000    0.000    0.000  1
  2   1    2  1 18 5    49  16    79  224  224  -250.00000   0.12210 8.19000e+00     0   500   0.00   0.00  -0.00 -107.22   17.84    6.45 6.000 0.000 0 3 2 2  0.741  0.741   0.00   28.08     0.00    0.00   1   15.00     0    0    0     1   0.0  1   1    7    0   0.000    0.000    0.000  1
  3   1    2  1 18 5    50  16    79  224  224  -250.00000   0.12210 8.19000e+00     0   500   0.00   0.00  -0.00 -101.22   17.84    6.45 6.000 0.000 0 3 2 2  0.741  0.741   0.00   28.08     0.00    0.00   1   15.00     0    0    0     1   0.0  1   1    7    0   0.000    0.000    0.000  1
  4   1    2  1 18 5    51  16    79  224  224  -250.00000   0.12210 8.19000e+00     0   500   0.00   0.00  -0.00  -95.22   17.84    6.45 6.000 0.000 0 3 2 2  0.741  0.741   0.00   28.08     0.00    0.00   1   15.00     0    0    0     1   0.0  1   1    7    0   0.000    0.000    0.000  1
  5   1    2  1 18 5    52  16    79  224  224  -250.00000   0.12210 8.19000e+00     0   500   0.00   0.00  -0.00  -89.22   17.84    6.45 6.000 0.000 0 3 2 2  0.741  0.741   0.00   28.08     0.00    0.00   1   15.00     0    0    0     1   0.0  1   1    7    0   0.000    0.000    0.000  1
  6   1    2  1 18 5    53  16    79  224  224  -250.00000   0.12210 8.19000e+00     0   500   0.00   0.00  -0.00  -83.22   17.84    6.45 6.000 0.000 0 3 2 2  0.741  0.741   0.00   28.08     0.00    0.00   1   15.00     0    0    0     1   0.0  1   1    7    0   0.000    0.000    0.000  1
  7   1    2  1 18 5    54  16    79  224  224  -250.00000   0.12210 8.19000e+00     0   500   0.00   0.00  -0.00  -77.22   17.84    6.45 6.000 0.000 0 3 2 2  0.741  0.741   0.00   28.08     0.00    0.00   1   15.00     0    0    0     1   0.0  1   1    7    0   0.000    0.000    0.000  1
  8   1    2  1 18 5    55  16    79  224  224  -250.00000   0.12210 8.19000e+00     0   500   0.00   0.00  -0.00  -71.22   17.84    6.45 6.000 0.000 0 3 2 2  0.741  0.741   0.00   28.08     0.00    0.00   1   15.00     0    0    0     1   0.0  1   1    7    0   0.000    0.000    0.000  1
  9   1    2  1 18 5    56  16    79  224  224  -250.00000   0.12210 8.19000e+00     0   500   0.00   0.00  -0.00  -65.22   17.84    6.45 6.000 0.000 0 3 2 2  0.741  0.741   0.00   28.08     0.00    0.00   1   15.00     0    0    0     1   0.0  1   1    7    0   0.000    0.000    0.000  1
 10   1    2  1 18 5    57  16    79  224  224  -250.00000   0.12210 8.19000e+00     0   500   0.00   0.00  -0.00  -59.22   17.84    6.45 6.000 0.000 0 3 2 2  0.741  0.741   0.00   28.08     0.00    0.00   1   15.00     0    0    0     1   0.0  1   1    7    0   0.000    0.000    0.000  1
 11   1    2  1 18 5    58  16    79  224  224  -250.00000   0.12210 8.19000e+00     0   500   0.00   0.00  -0.00  -53.22   17.83    6.45 6.000 0.000 0 3 2 2  0.741  0.741   0.00   28.08     0.00    0.00   1   15.00     0    0    0     1   0.0  1   1    7    0   0.000    0.000    0.000  1
 12   1    2  1 18 5    59  16    79  224  224  -250.00000   0.12210 8.19000e+00     0   500   0.00   0.00  -0.00  -47.22   17.83    6.45 6.000 0.000 0 3 2 2  0.741  0.741   0.00   28.08     0.00    0.00   1   15.00     0    0    0     1   0.0  1   1    7    0   0.000    0.000    0.000  1
 13   1    2  1 18 5    60  16    79  224  224  -250.00000   0.12210 8.19000e+00     0   500   0.00   0.00  -0.00  -41.22   17.83    6.45 6.000 0.000 0 3 2 2  0.741  0.741   0.00   28.08     0.00    0.00   1   15.00     0    0    0     1   0.0  1   1    7    0   0.000    0.000    0.000  1
 14   1    2  1 18 5    61  16    79  224  224  -250.00000   0.12210 8.19000e+00     0   500   0.00   0.00  -0.00  -35.22   17.83    6.45 6.000 0.000 0 3 2 2  0.741  0.741   0.00   28.08     0.00    0.00   1   15.00     0    0    0     1   0.0  1   1    7    0   0.000    0.000    0.000  1
 15   1    2  1 18 5    62  16    79  224  224  -250.00000   0.12210 8.19000e+00     0   500   0.00   0.00  -0.00  -29.22   17.83    6.45 6.000 0.000 0 3 2 2  0.741  0.741   0.00   28.08     0.00    0.00   1   15.00     0    0    0     1   0.0  1   1    7    0   0.000    0.000    0.000  1
 16   1    2  1 18 5    63  16    79  224  224  -250.00000   0.12210 8.19000e+00     0   500   0.00   0.00  -0.00  -23.22   17.83    6.45 6.000 0.000 0 3 2 2  0.741  0.741   0.00   28.08     0.00    0.00   1   15.00     0    0    0     1   0.0  1   1    7    0   0.000    0.000    0.000  1
  1   1    3  1 0 2    64  16    79  224  224     0.00000   1.78364 3.92684e-03   494   859   0.00   0.00  -0.00 -113.22   17.84    6.45 6.000 0.000 0 3 3 2  0.741  0.741   2.69   56.16     0.00    0.00   1   15.00     0    0    0     1   0.0  1   1    7    0   0.000    0.000    0.000  1
  2   1    3  1 0 2    65  16    79  224  224     0.00000   1.78364 3.92684e-03   945  1643   0.00   0.00  -0.00 -107.22   17.84    6.45 6.000 0.000 0 3 3 2  0.741  0.741   2.69   56.16     0.00    0.00   1   15.00     0    0    0     1   0.0  1   1    7    0   0.000    0.000    0.000  1
  3   1    3  1 0 2    66  16    79  224  224     0.00000   1.78364 3.92684e-03  1045  1816   0.00   0.00  -0.00 -101.22   17.84    6.45 6.000 0.000 0 3 3 2  0.741  0.741   2.69   56.16     0.00    0.00   1   15.00     0    0    0     1   0.0  1   1    7    0   0.000    0.000    0.000  1
  4   1    3  1 0 2    67  16    79  224  224     0.00000   1.78364 3.92684e-03  1042  1811   0.00   0.00  -0.00  -95.22   17.84    6.45 6.000 0.000 0 3 3 2  0.741  0.741   2.69   56.16     0.00    0.00   1   15.00     0    0    0     1   0.0  1   1    7    0   0.000    0.000    0.000  1
  5   1    3  1 0 2    68  16    79  224  224     0.00000   1.78364 3.92684e-03  1063  1848   0.00   0.00  -0.00  -89.22   17.84    6.45 6.000 0.000 0 3 3 2  0.741  0.741   2.69   56.16     0.00    0.00   1   15.00     0    0    0     1   0.0  1   1    7    0   0.000    0.000    0.000  1
  6   1    3  1 0 2    69  16    79  224  224     0.00000   1.78364 3.92684e-03  1073  1866   0.00   0.00  -0.00  -83.22   17.84    6.45 6.000 0.000 0 3 3 2  0.741  0.741   2.69   56.16     0.00    0.00   1   15.00     0    0    0     1   0.0  1   1    7    0   0.000    0.000    0.000  1
  7   1    3  1 0 2    70  16    79  224  224     0.00000   1.78364 3.92684e-03  1075  1868   0.00   0.00  -0.00  -77.22   17.84    6.45 6.000 0.000 0 3 3 2  0.741  0.741   2.69   56.16     0.00    0.00   1   15.00     0    0    0     1   0.0  1   1    7    0   0.000    0.000    0.000  1
  8   1    3  1 0 2    71  16    79  224  224     0.00000   1.78364 3.92684e-03  1072  1863   0.00   0.00  -0.00  -71.22   17.84    6.45 6.000 0.000 0 3 3 2  0.741  0.741   2.69   56.16     0.00    0.00   1   15.00     0    0    0     1   0.0  1   1    7    0   0.000    0.000    0.000  1
  9   1    3  1 0 2    72  16    79  224  224     0.00000   1.78364 3.92684e-03  1067  1854   0.00   0.00  -0.00  -65.22   17.84    6.45 6.000 0.000 0 3 3 2  0.741  0.741   2.69   56.16     0.00    0.00   1   15.00     0    0    0     1   0.0  1   1    7    0   0.000    0.000    0.000  1
 10   1    3  1 0 2    73  16    79  224  224     0.00000   1.78364 3.92684e-03  1044  1815   0.00   0.00  -0.00  -59.22   17.84    6.45 6.000 0.000 0 3 3 2  0.741  0.741   2.69   56.16     0.00    0.00   1   15.00     0    0    0     1   0.0  1   1    7    0   0.000    0.000    0.000  1
 11   1    3  1 0 2    74  16    79  224  224     0.00000   1.78364 3.92684e-03  1020  1773   0.00   0.00  -0.00  -53.22   17.83    6.45 6.000 0.000 0 3 3 2  0.741  0.741   2.69   56.16     0.00    0.00   1   15.00     0    0    0     1   0.0  1   1    7    0   0.000    0.000    0.000  1
 12   1    3  1 0 2    75  16    79  224  224     0.00000   1.78364 3.92684e-03  1014  1762   0.00   0.00  -0.00  -47.22   17.83    6.45 6.000 0.000 0 3 3 2  0.741  0.741   2.69   56.16     0.00    0.00   1   15.00     0    0    0     1   0.0  1   1    7    0   0.000    0.000    0.000  1
 13   1    3  1 0 2    76  16    79  224  224     0.00000   1.78364 3.92684e-03   982  1707   0.00   0.00  -0.00  -41.22   17.83    6.45 6.000 0.000 0 3 3 2  0.741  0.741   2.69   56.16     0.00    0.00   1   15.00     0    0    0     1   0.0  1   1    7    0   0.000    0.000    0.000  1
 14   1    3  1 0 2    77  16    79  224  224     0.00000   1.78364 3.92684e-03   947  1646   0.00   0.00  -0.00  -35.22   17.83    6.45 6.000 0.000 0 3 3 2  0.741  0.741   2.69   56.16     0.00    0.00   1   15.00     0    0    0     1   0.0  1   1    7    0   0.000    0.000    0.000  1
 15   1    3  1 0 2    78  16    79  224  224     0.00000   1.78364 3.92684e-03   817  1421   0.00   0.00  -0.00  -29.22   17.83    6.45 6.000 0.000 0 3 3 2  0.741  0.741   2.69   56.16     0.00    0.00   1   15.00     0    0    0     1   0.0  1   1    7    0   0.000    0.000    0.000  1
 16   1    3  1 0 2    79  16    79  224  224     0.00000   1.78364 3.92684e-03   484   841   0.00   0.00  -0.00  -23.22   17.83    6.45 6.000 0.000 0 3 3 2  0.741  0.741   2.69   56.16     0.00    0.00   1   15.00     0    0    0     1   0.0  1   1    7    0   0.000    0.000    0.000  1
  1   1    3  1 18 5    80  16    79  224  224  -250.00000   0.12210 8.19000e+00     0   500   0.00   0.00  -0.00 -113.22   17.84    6.45 6.000 0.000 0 3 3 2  0.741  0.741   0.00   56.16     0.00    0.00   1   15.00     0    0    0     1   0.0  1   1    7    0   0.000    0.000    0.000  1
  2   1    3  1 18 5    81  16    79  224  224  -250.00000   0.12210 8.19000e+00     0   500   0.00   0.00  -0.00 -107.22   17.84    6.45 6.000 0.000 0 3 3 2  0.741  0.741   0.00   56.16     0.00    0.00   1   15.00     0    0    0     1   0.0  1   1    7    0   0.000    0.000    0.000  1
  3   1    3  1 18 5    82  16    79  224  224  -250.00000   0.12210 8.19000e+00     0   500   0.00   0.00  -0.00 -101.22   17.84    6.45 6.000 0.000 0 3 3 2  0.741  0.741   0.00   56.16     0.00    0.00   1   15.00     0    0    0     1   0.0  1   1    7    0   0.000    0.000    0.000  1
  4   1    3  1 18 5    83  16    79  224  224  -250.00000   0.12210 8.19000e+00     0   500   0.00   0.00  -0.00  -95.22   17.84    6.45 6.000 0.000 0 3 3 2  0.741  0.741   0.00   56.16     0.00    0.00   1   15.00     0    0    0     1   0.0  1   1    7    0   0.000    0.000    0.000  1
  5   1    3  1 18 5    84  16    79  224  224  -250.00000   0.12210 8.19000e+00     0   500   0.00   0.00  -0.00  -89.22   17.84    6.45 6.000 0.000 0 3 3 2  0.741  0.741   0.00   56.16     0.00    0.00   1   15.00     0    0    0     1   0.0  1   1    7    0   0.000    0.000    0.000  1
